radius,b_iso,err_b_iso,b_ani,err_b_ani,B_bar,err_B_bar,pani,err_pani,po,err_po,pB,err_pB
0.6153,17.904433316592307,6.474322643145309,3.8495522515243135,1.42761116279105,3.4649727317044174,0.7881106975129859,-2.035944837127137,-0.03190564923332098,-4.773836748602935,2.23198810113451,-6.434079204284386,-3.488580582180824
0.8592,16.999092579301248,6.149382808042038,4.102616732714712,1.4357989047491249,3.47315447997026,0.628333938059308,-2.4552663667926162,-0.03453474339068294,-3.7394233487880335,1.3646604251675754,-4.58367036455218,-2.2286084112465376
1.103,16.012358906656573,5.794971709154253,3.9182821175235416,1.3525195134143888,3.1464815915781177,0.5259754660364376,-2.570409551722179,-0.03369310300069125,-3.466283034783093,1.1472716782361703,-4.0973923601171345,-1.9360243227839167
1.346,15.447634385249396,5.59326796214803,3.5821331312241926,1.2374744641220226,2.7368697516388387,0.45282957798779555,-2.2733610213283035,-0.026673210618121865,-3.3436674741356636,1.137993791339798,-4.149205907360912,-1.962404348437086
1.5900000000000003,15.38160116889756,5.572263871905528,3.3360809036425794,1.1543113444964066,2.397828635759687,0.39453811108564685,-2.003271668183993,-0.02089721941515907,-3.2049848864291666,1.118941189690797,-4.1844927837300165,-1.9845281147980232
1.834,14.826744996895723,5.374280691668568,3.0907406926847543,1.0718814372449412,2.1616434366608557,0.35441645832756835,-1.967894344870123,-0.019945504323575426,-3.163256321312185,1.1041953684328596,-4.172448457087437,-1.9874774285377823
2.089,13.710297669339745,4.9727409212556095,2.8825238242224627,0.9973157150441818,2.0189053170636626,0.32284869020265416,-1.9376859398445245,-0.019182418270389,-3.009037921671394,1.0288756900360037,-3.911771332365567,-1.8540013059194451
2.333,12.530405561730605,4.547730649982976,2.739445201920782,0.9424591686918186,1.9462856629059706,0.29892453398507524,-1.972914228266501,-0.01931450854488205,-2.796906608151837,0.906403933901249,-3.4783408782662,-1.6292265929947811
2.577,11.463838473349702,4.163493246579152,2.6118678144049,0.8938105544187299,1.878316620444125,0.2776573561023523,-2.1678812428839085,-0.021926238303055633,-2.6593490460824256,0.7866502966866963,-3.058980045445771,-1.4167880948149412
2.821,10.461874434692179,3.80235731729059,2.4902153447770967,0.8481697780894334,1.8119995259187096,0.2585577392510748,-2.3385056142151144,-0.024212881697366653,-2.5230257506495257,0.6800876154623295,-2.670070469312732,-1.2241938059324595
3.065,10.307443767188262,3.7491024248186,2.445017223992118,0.8304866363614556,1.7268421635143076,0.2410280344510154,-2.3539316893471485,-0.023482071762235237,-2.424734378583947,0.6170475167768394,-2.4826768692736754,-1.1313671216805907
3.309,11.278075251092663,4.1054559142490525,2.5074668824929303,0.8503025794506233,1.6204735166601563,0.2226068896463645,-2.0871616618025124,-0.017923238910642916,-2.2804754424087,0.5789108306953692,-2.4601370248701473,-1.1168815373054937
3.552,10.311430476616747,3.756737923475201,2.3435291130329077,0.7949493043209996,1.5462545091390274,0.21160948976575888,-2.178060276063133,-0.019448555718386693,-2.299880836983024,0.5737782720404211,-2.40973993587175,-1.0946996742504953
3.796,9.908826972788136,3.6132513707610237,2.2124140538924193,0.7518400191436428,1.4487969128156502,0.19918063261151012,-2.0702893009811216,-0.017963018293283225,-2.2779283768771244,0.5882417878993588,-2.4677913529589213,-1.1255186540978053
4.04,9.454710970957324,3.450840748310468,2.0802163540266982,0.7082016877763854,1.3572185149299318,0.187384849591452,-2.1281360805916525,-0.018805163276916503,-2.3033360782319763,0.5879934525399002,-2.464083972019129,-1.1283991037252838
4.284,8.728917531953055,3.1889993297765256,1.926095373598287,0.6569250334170218,1.2771387418921796,0.17702664590694203,-2.1168701577188065,-0.018961385523274803,-2.25058291833623,0.5732115196949019,-2.3705824976200973,-1.0901368343695452
4.528,8.220141817327523,3.00612641404109,1.8370173298670986,0.6264477366905409,1.2275487538523302,0.16891460028107744,-2.066705580428679,-0.018262025520001175,-2.161627489282375,0.5452600440226881,-2.245789579552337,-1.032680489880489
4.772000000000001,8.043697134429308,2.9446515578571297,1.8149401370605218,0.6178974108450196,1.1984360949125898,0.162400421840459,-2.207716307396274,-0.019833851791378056,-2.1688017055827387,0.5120837612199174,-2.1324449671046644,-0.9773069515294748
5.026999999999999,7.349322911580381,2.6934781783825845,1.7074604255976646,0.581236379504519,1.1542468432342459,0.15525789844183124,-2.265231286609468,-0.02091504631014418,-2.111139950993427,0.48184792187338826,-1.974185549069194,-0.9049084415530728
5.270999999999999,6.80236288832529,2.4957971125621894,1.5958255489896445,0.5437857512049071,1.0940965357299501,0.14710923710294793,-2.4028052088018548,-0.023204272790683225,-2.117066762222979,0.46370529125537907,-1.8683048218845457,-0.8586333086268414
5.514999999999999,7.003022260240989,2.5723751244130217,1.596492222467749,0.5438414178017449,1.050459306213946,0.1400040157473141,-2.1653984931247727,-0.01895988535779189,-2.0062883795563917,0.44798608230508863,-1.860112659638769,-0.854600746211156
5.759,6.444914482550672,2.3701786958257616,1.5374494415069637,0.5231945371023029,1.0393339953963934,0.136934045298731,-2.5082754366305697,-0.024175795876729578,-2.076565114196294,0.4221894352154328,-1.6943679347849923,-0.7771326675289074
6.002,5.986570088960163,2.204299547600597,1.486158213472296,0.5052225920726484,1.0236691504132005,0.13315221022896045,-2.681174742297432,-0.02701159453108461,-2.076380226136865,0.40124992062656156,-1.5538404283301275,-0.7114806995405436
6.246,5.270172162009481,1.9429590064671756,1.399634515701723,0.4753865953124157,1.0082674041018922,0.1296003972524566,-2.87163681327701,-0.030956670701876052,-2.0433138926913,0.3816156674783091,-1.3678723975501792,-0.6255072670468864
6.49,4.802817409069587,1.7729504683794062,1.3061471131261901,0.4440384264943418,0.9627474036615279,0.12376124050951098,-3.0976906451961455,-0.035588806677531566,-2.0747087000291975,0.3804633179798304,-1.264835739512145,-0.5799230455275886
6.734,4.095525358399657,1.5138647914717678,1.1583960914677547,0.3947413414720547,0.9022101478789225,0.11732165773178559,-3.223768473740977,-0.03998740590171219,-2.0154397123902736,0.3767633014828194,-1.125189127396849,-0.5189356977799113
6.978,3.4577958699961173,1.279878865553408,1.029116961056567,0.35125438601143427,0.8471221631318573,0.11078618834500058,-3.613895021692316,-0.050426433060437446,-2.041151102235606,0.3926511099937657,-0.9636154958163636,-0.44631359131147286
7.222,2.8732609794095207,1.0650048739528946,0.9113621214814587,0.31136003680102664,0.7947541275649938,0.10400116329995768,-4.057250519859315,-0.06370543617603024,-2.0602947530028923,0.4214569277052911,-0.793059563553316,-0.36836466611083474
7.465,2.5451149986778,0.9447201353300825,0.8197603174079571,0.28062467171137745,0.7328859660208759,0.09657349507271432,-4.1195515207886775,-0.06703387124000768,-2.0014562066112958,0.40670331642132496,-0.7016982843250148,-0.3275906601332224
7.709,2.1679132660982945,0.805886859268478,0.7142922155806477,0.2452601733294116,0.6659112430195625,0.08889160975479599,-4.299135776911567,-0.07513427388678957,-1.9616888246593565,0.4017784515798021,-0.6064586730525425,-0.28519820330473633
7.952999999999999,1.640481724162726,0.6107373549023739,0.5865962911314353,0.20222472010420753,0.6043358693269557,0.08237213795009371,-5.025726041993579,-0.10684526505478721,-2.0049334311728035,0.30643111832600795,-0.4782299699462575,-0.22701290185668682
